wavelength_nm,reflectance
400,0.10097148269414902
401,0.10103911906480789
402,0.10110791772603989
403,0.1011778935790062
404,0.1012490913271904
405,0.10132152587175369
406,0.10139522701501846
407,0.10147023946046829
408,0.10154658555984497
409,0.1016242727637291
410,0.10170334577560425
411,0.10178383439779282
412,0.1018657311797142
413,0.10194908827543259
414,0.10203390568494797
415,0.10212019830942154
416,0.10220801085233688
417,0.10229731351137161
418,0.10238814353942871
419,0.10248049348592758
420,0.10257437825202942
421,0.10266979783773422
422,0.10276675224304199
423,0.10286521166563034
424,0.10296519845724106
425,0.10306668281555176
426,0.10316965728998184
427,0.10327409952878952
428,0.103379987180233
429,0.1034872829914093
430,0.10359596461057663
431,0.1037060022354126
432,0.10381734371185303
433,0.10392994433641434
434,0.10404377430677414
435,0.10415875911712646
436,0.10427484661340714
437,0.10439199209213257
438,0.1045101061463356
439,0.10462913662195206
440,0.10474900156259537
441,0.10486964136362076
442,0.10499095916748047
443,0.10511287301778793
444,0.1052352786064148
445,0.10535812377929688
446,0.10548128932714462
447,0.10560467094182968
448,0.10572818666696548
449,0.10585173219442368
450,0.1059751883149147
451,0.106098473072052
452,0.10622145980596542
453,0.1063440665602684
454,0.1064661517739296
455,0.10658761858940125
456,0.10670837014913559
457,0.10682827234268188
458,0.10694722086191177
459,0.10706514120101929
460,0.10718189924955368
461,0.107297383248806
462,0.10741150379180908
463,0.10752415657043457
464,0.10763523727655411
465,0.10774466395378113
466,0.10785233974456787
467,0.10795816779136658
468,0.10806208848953247
469,0.1081639900803566
470,0.10826382786035538
471,0.10836151242256165
472,0.10845699161291122
473,0.10855019837617874
474,0.10864108800888062
475,0.10872960090637207
476,0.10881570726633072
477,0.10889936238527298
478,0.10898055881261826
479,0.10905923694372177
480,0.10913541913032532
481,0.10920906066894531
482,0.10928019136190414
483,0.10934879630804062
484,0.10941489785909653
485,0.10947848111391068
486,0.10953960567712784
487,0.10959828644990921
488,0.10965455323457718
489,0.10970846563577652
490,0.10976004600524902
491,0.10980936139822006
492,0.10985644906759262
493,0.10990139842033386
494,0.10994426161050797
495,0.1099851131439209
496,0.11002402752637863
497,0.11006107181310654
498,0.11009635776281357
499,0.1101299449801445
500,0.1101619303226471
501,0.11019241064786911
502,0.11022146791219711
503,0.11024919897317886
504,0.11027570813894272
505,0.11030107736587524
506,0.11032542586326599
507,0.11034882813692093
508,0.1103714108467102
509,0.110393226146698
510,0.11041442304849625
511,0.11043504625558853
512,0.1104552373290062
513,0.11047506332397461
514,0.11049460619688034
515,0.11051396280527115
516,0.1105332151055336
517,0.11055246740579605
518,0.11057177931070328
519,0.11059121042490005
520,0.11061087995767593
521,0.1106308177113533
522,0.11065111309289932
523,0.11067181080579758
524,0.11069297790527344
525,0.11071465164422989
526,0.1107369139790535
527,0.11075979471206665
528,0.11078333854675293
529,0.11080757528543472
530,0.11083254963159561
531,0.11085828393697739
532,0.11088480800390244
533,0.11091213673353195
534,0.11094029992818832
535,0.11096928268671036
536,0.11099912971258163
537,0.11102984100580215
538,0.11106140166521072
539,0.11109384149312973
540,0.11112711578607559
541,0.1111612319946289
542,0.11119621247053146
543,0.11123200505971909
544,0.11126860231161118
545,0.11130598932504654
546,0.11134415864944458
547,0.11138305813074112
548,0.11142269521951675
549,0.11146301031112671
550,0.11150401830673218
551,0.11154564470052719
552,0.11158788204193115
553,0.11163070052862167
554,0.11167404800653458
555,0.11171790212392807
556,0.11176222562789917
557,0.11180698871612549
558,0.11185213923454285
559,0.11189764738082886
560,0.11194348335266113
561,0.1119895949959755
562,0.11203595250844955
563,0.11208253353834152
564,0.11212927103042603
565,0.11217614263296127
566,0.11222311109304428
567,0.11227014660835266
568,0.11231721192598343
569,0.1123642548918724
570,0.1124112606048584
571,0.11245819181203842
572,0.11250501126050949
573,0.11255168914794922
574,0.11259818077087402
575,0.11264447122812271
576,0.1126905307173729
577,0.11273632198572159
578,0.112781822681427
579,0.11282700300216675
580,0.11287184804677963
581,0.11291631311178207
582,0.11296039819717407
583,0.11300405114889145
584,0.1130472719669342
585,0.11309003829956055
586,0.11313232034444809
587,0.11317410320043564
588,0.1132153645157814
589,0.11325611919164658
590,0.11329629272222519
591,0.11333591490983963
592,0.11337495595216751
593,0.11341340094804764
594,0.11345124244689941
595,0.11348847299814224
596,0.11352506279945374
597,0.11356101185083389
598,0.11359632015228271
599,0.11363097280263901
600,0.11366494745016098
601,0.11369824409484863
602,0.11373087763786316
603,0.11376281827688217
604,0.11379405856132507
605,0.11382460594177246
606,0.11385444551706314
607,0.11388357728719711
608,0.11391200870275497
609,0.11393972486257553
610,0.11396671086549759
611,0.11399299651384354
612,0.11401855945587158
613,0.11404340714216232
614,0.11406751722097397
615,0.1140909194946289
616,0.11411359906196594
617,0.11413554102182388
618,0.11415679007768631
619,0.11417730897665024
620,0.11419711261987686
621,0.11421618610620499
622,0.1142345666885376
623,0.1142522320151329
624,0.11426917463541031
625,0.1142854318022728
626,0.11430096626281738
627,0.11431580781936646
628,0.11432995647192001
629,0.11434340476989746
630,0.11435618251562119
631,0.1143682524561882
632,0.1143796443939209
633,0.11439036577939987
634,0.11440040916204453
635,0.11440978199243546
636,0.11441850662231445
637,0.11442657560110092
638,0.11443396657705307
639,0.11444071680307388
640,0.11444682627916336
641,0.1144523024559021
642,0.1144571304321289
643,0.11446133255958557
644,0.1144649088382721
645,0.11446788161993027
646,0.1144702211022377
647,0.11447194963693619
648,0.11447308212518692
649,0.1144736185669899
650,0.11447355896234512
651,0.1144729033112526
652,0.1144716739654541
653,0.11446986347436905
654,0.11446747928857803
655,0.11446452140808105
656,0.11446099728345871
657,0.1144568994641304
658,0.11445226520299911
659,0.11444706469774246
660,0.11444131284952164
661,0.11443503946065903
662,0.11442819982767105
663,0.1144208312034607
664,0.11441292613744736
665,0.11440447717905045
666,0.11439552158117294
667,0.11438602209091187
668,0.1143760085105896
669,0.11436548084020615
670,0.11435440927743912
671,0.1143428310751915
672,0.1143307313323021
673,0.1143181324005127
674,0.11430499702692032
675,0.11429134756326675
676,0.114277184009552
677,0.11426251381635666
678,0.11424732208251953
679,0.11423160880804062
680,0.11421537399291992
681,0.11419862508773804
682,0.11418136209249496
683,0.11416355520486832
684,0.11414522677659988
685,0.11412637680768967
686,0.11410697549581528
687,0.1140870451927185
688,0.11406657844781876
689,0.11404553800821304
690,0.11402397602796555
691,0.11400184035301208
692,0.11397913843393326
693,0.11395587772130966
694,0.11393202096223831
695,0.1139075979590416
696,0.11388256400823593
697,0.11385694146156311
698,0.11383071541786194
699,0.11380386352539062
700,0.11377639323472977
701,0.11374828964471817
702,0.11371956020593643
703,0.11369016021490097
704,0.11366011947393417
705,0.11362939327955246
706,0.11359798908233643
707,0.11356589943170547
708,0.11353311687707901
709,0.11349964141845703
710,0.11346542835235596
711,0.11343050003051758
712,0.1133948341012001
713,0.11335843801498413
714,0.11332128196954727
715,0.11328337341547012
716,0.1132446900010109
717,0.11320525407791138
718,0.11316504329442978
719,0.11312402039766312
720,0.11308223009109497
721,0.11303963512182236
722,0.11299625784158707
723,0.11295207589864731
724,0.11290710419416428
725,0.11286132782697678
726,0.1128147542476654
727,0.11276739835739136
728,0.11271923780441284
729,0.11267030239105225
730,0.11262059956789017
731,0.1125701293349266
732,0.11251888424158096
733,0.11246690899133682
734,0.11241421848535538
735,0.11236079782247543
736,0.11230669170618057
737,0.1122519001364708
738,0.11219646781682968
739,0.11214039474725723
740,0.11208372563123703
741,0.11202647536993027
742,0.11196869611740112
743,0.111910380423069
744,0.11185160279273987
745,0.11179238557815552
746,0.11173275113105774
747,0.11167275905609131
748,0.11161243915557861
749,0.11155184358358383
750,0.11149101704359055
751,0.11142998933792114
752,0.11136883497238159
753,0.11130758374929428
754,0.11124628037214279
755,0.1111849918961525
756,0.11112376302480698
757,0.11106264591217041
758,0.11100170761346817
759,0.11094097048044205
760,0.1108805239200592
761,0.11082040518522263
762,0.1107606589794159
763,0.11070134490728378
764,0.11064253002405167
765,0.11058425158262253
766,0.11052656173706055
767,0.1104695200920105
768,0.11041317135095596
769,0.11035756021738052
770,0.11030272394418716
771,0.11024874448776245
772,0.11019561439752579
773,0.11014343053102493
774,0.11009219288825989
775,0.11004195362329483
776,0.10999274253845215
777,0.10994460433721542
778,0.10989757627248764
779,0.1098516657948494
780,0.10980691760778427
781,0.10976334661245346
782,0.10972099751234055
783,0.10967987030744553
784,0.1096399798989296
785,0.10960135608911514
786,0.10956400632858276
787,0.10952795296907425
788,0.1094931960105896
789,0.1094597578048706
790,0.10942760854959488
791,0.109396792948246
792,0.10936728864908218
793,0.10933911800384521
794,0.10931224375963211
795,0.10928670316934586
796,0.10926246643066406
797,0.10923952609300613
798,0.10921788215637207
799,0.10919752717018127
800,0.10917844623327255
801,0.10916063189506531
802,0.10914406925439835
803,0.10912873595952988
804,0.1091146245598793
805,0.10910173505544662
806,0.10909002274274826
807,0.10907948017120361
808,0.10907009989023209
809,0.10906185954809189
810,0.10905472189188004
811,0.10904869437217712
812,0.10904374718666077
813,0.10903985053300858
814,0.10903700441122055
815,0.10903515666723251
816,0.10903432220220566
817,0.1090344563126564
818,0.10903555154800415
819,0.10903757810592651
820,0.1090405210852623
821,0.10904435068368912
822,0.10904905200004578
823,0.10905460268259048
824,0.10906100273132324
825,0.10906819254159927
826,0.10907617956399918
827,0.10908494144678116
828,0.10909446328878403
829,0.1091046929359436
830,0.10911563783884048
831,0.10912729054689407
832,0.10913962125778198
833,0.10915259271860123
834,0.1091662049293518
835,0.10918044298887253
836,0.1091952845454216
837,0.10921069234609604
838,0.10922668129205704
839,0.1092432364821434
840,0.10926031321287155
841,0.10927791148424149
842,0.10929602384567261
843,0.10931462049484253
844,0.10933368653059006
845,0.1093532145023346
846,0.10937318950891495
847,0.10939359664916992
848,0.10941442102193832
849,0.10943564772605896
850,0.10945727676153183
851,0.10947927832603455
852,0.10950163751840591
853,0.10952436923980713
854,0.10955357551574707
855,0.10959837585687637
856,0.10964330285787582
857,0.10968834906816483
858,0.10973352193832397
859,0.10977881401777267
860,0.10982421785593033
861,0.10986974090337753
862,0.1099153682589531
863,0.10996109992265701
864,0.11000695079565048
865,0.11005290597677231
866,0.1100989505648613
867,0.11014509201049805
868,0.11019134521484375
869,0.11023769527673721
870,0.11028412729501724
871,0.11033066362142563
872,0.11037728935480118
873,0.11042400449514389
874,0.11047079414129257
875,0.11051768064498901
876,0.11056464165449142
877,0.1106116771697998
878,0.11065880209207535
879,0.11070600897073746
880,0.11075327545404434
881,0.11080063134431839
882,0.11084804683923721
883,0.1108955442905426
884,0.11094310879707336
885,0.1109907403588295
886,0.11103842407464981
887,0.11108618974685669
888,0.11113401502370834
889,0.11118189245462418
890,0.11122983694076538
891,0.11127784103155136
892,0.11132588982582092
893,0.11137399822473526
894,0.11142215877771378
895,0.11147039383649826
896,0.11151865869760513
897,0.11156698316335678
898,0.11161533743143082
899,0.11166375875473022
900,0.11171222478151321
901,0.1122764153778553
902,0.11284024074673651
903,0.11340369775891304
904,0.11396677553653718
905,0.11452947296202183
906,0.115091792345047
907,0.11565372526645659
908,0.11621526807546616
909,0.11677642732858656
910,0.1173371709883213
911,0.11789753325283527
912,0.11845749020576476
913,0.11901705257594586
914,0.11957619413733483
915,0.12013492397964001
916,0.12069325476884843
917,0.12125117190182208
918,0.1218086613714695
919,0.1223657339066267
920,0.12292239367961884
921,0.12347862102091312
922,0.12403443202376366
923,0.1245898074656725
924,0.12514476090669632
925,0.12569927982985973
926,0.12625335946679114
927,0.12680702425539495
928,0.1273602521419525
929,0.12791303001344204
930,0.12846538349986075
931,0.12901728585362435
932,0.12956876069307327
933,0.13011978730559348
934,0.1306703744828701
935,0.13122051618993283
936,0.13177021682262421
937,0.13231947042047976
938,0.13286827042698862
939,0.1334166329354048
940,0.1339645445346832
941,0.1345120070874691
942,0.13505902275443077
943,0.13560556702315807
944,0.1361516797542572
945,0.1366973388940096
946,0.13724254637956618
947,0.13778728403151036
948,0.1383315846323967
949,0.13887542426586152
950,0.1394188180565834
951,0.13996174678206444
952,0.14050421357154846
953,0.14104623265564442
954,0.14158778503537178
955,0.14212889336049558
956,0.14266952604055405
957,0.14320971406996252
958,0.14374944016337396
959,0.1442887030541897
960,0.14482750594615937
961,0.14536584809422493
962,0.14590374156832694
963,0.1464411584287882
964,0.14697812885046005
965,0.14751462824642658
966,0.14805066600441932
967,0.14858623459935189
968,0.149121356010437
969,0.14965601302683354
970,0.15019020214676856
971,0.15072392873466015
972,0.15125718623399734
973,0.1517899914830923
974,0.15232232287526132
975,0.1528542060405016
976,0.15338561475276946
977,0.1539165600389242
978,0.15444704189896585
979,0.15497706033289432
980,0.15550661832094193
981,0.1560357125848532
982,0.1565643309056759
983,0.15709248773753642
984,0.15762019157409665
985,0.15814741887152195
986,0.15867418408393857
987,0.15920048385858537
988,0.15972631931304931
989,0.16025169126689434
990,0.160776599496603
991,0.16130104243755342
992,0.1618250072002411
993,0.16234853647649286
994,0.16287157222628593
995,0.16339415721595285
996,0.16391627818346025
997,0.16443790510296818
998,0.16495909586548807
999,0.16547982178628445
1000,0.16600006818771362
1001,0.166026771068573
1002,0.16605345904827118
1003,0.16608016192913055
1004,0.16610683500766754
1005,0.16613353788852692
1006,0.1661602258682251
1007,0.16618692874908447
1008,0.16621361672878265
1009,0.16624030470848083
1010,0.16626699268817902
1011,0.1662936955690384
1012,0.16632038354873657
1013,0.16634708642959595
1014,0.16637377440929413
1015,0.1664004772901535
1016,0.1664271503686905
1017,0.16645385324954987
1018,0.16648054122924805
1019,0.16650724411010742
1020,0.1665339320898056
1021,0.16656062006950378
1022,0.16658732295036316
1023,0.16661401093006134
1024,0.16664071381092072
1025,0.1666674017906189
1026,0.16669410467147827
1027,0.16672079265117645
1028,0.16674749553203583
1029,0.1667741984128952
1030,0.1668008714914322
1031,0.16682757437229156
1032,0.16685427725315094
1033,0.16688098013401031
1034,0.1669076681137085
1035,0.16693437099456787
1036,0.16696107387542725
1037,0.16698777675628662
1038,0.167014479637146
1039,0.16704118251800537
1040,0.16706788539886475
1041,0.16709458827972412
1042,0.1671212911605835
1043,0.16714799404144287
1044,0.16717469692230225
1045,0.16720139980316162
1046,0.167228102684021
1047,0.16725482046604156
1048,0.16728152334690094
1049,0.16730822622776031
1050,0.16733495891094208
1051,0.16736166179180145
1052,0.16738837957382202
1053,0.1674150973558426
1054,0.16744180023670197
1055,0.16746853291988373
1056,0.1674952507019043
1057,0.16752195358276367
1058,0.16754867136478424
1059,0.167575404047966
1060,0.16760212182998657
1061,0.16762883961200714
1062,0.1676555722951889
1063,0.16768229007720947
1064,0.16770900785923004
1065,0.1677357405424118
1066,0.16776247322559357
1067,0.16778920590877533
1068,0.1678159236907959
1069,0.16784267127513885
1070,0.16786940395832062
1071,0.16789613664150238
1072,0.16792286932468414
1073,0.1679496169090271
1074,0.16797633469104767
1075,0.16800308227539062
1076,0.16802982985973358
1077,0.16805656254291534
1078,0.1680833101272583
1079,0.16811005771160126
1080,0.16813679039478302
1081,0.16816353797912598
1082,0.16819030046463013
1083,0.16821706295013428
1084,0.16824381053447723
1085,0.168270543217659
1086,0.16829730570316315
1087,0.1683240681886673
1088,0.16835081577301025
1089,0.1683775782585144
1090,0.16840434074401855
1091,0.1684311032295227
1092,0.16845786571502686
1093,0.168484628200531
1094,0.16851139068603516
1095,0.1685381531715393
1096,0.16856491565704346
1097,0.1685916930437088
1098,0.16861845552921295
1099,0.1686452180147171
1100,0.16867198050022125
1101,0.1686987429857254
1102,0.16872553527355194
1103,0.16875231266021729
1104,0.16877907514572144
1105,0.16880583763122559
1106,0.16883261501789093
1107,0.16885937750339508
1108,0.16888613998889923
1109,0.16891293227672577
1110,0.16893969476222992
1111,0.16896645724773407
1112,0.16899323463439941
1113,0.16901999711990356
1114,0.16904675960540771
1115,0.16907352209091187
1116,0.16910028457641602
1117,0.16912704706192017
1118,0.16915380954742432
1119,0.16918055713176727
1120,0.16920728981494904
1121,0.169234037399292
1122,0.16926078498363495
1123,0.1692875176668167
1124,0.16931426525115967
1125,0.16934098303318024
1126,0.169367715716362
1127,0.16939443349838257
1128,0.16942113637924194
1129,0.16944783926010132
1130,0.1694745272397995
1131,0.16950123012065887
1132,0.16952788829803467
1133,0.16955454647541046
1134,0.16958121955394745
1135,0.16960786283016205
1136,0.16963450610637665
1137,0.16966110467910767
1138,0.16968770325183868
1139,0.1697143167257309
1140,0.16974087059497833
1141,0.16976743936538696
1142,0.169793963432312
1143,0.16982048749923706
1144,0.16984699666500092
1145,0.1698734611272812
1146,0.16989992558956146
1147,0.16992634534835815
1148,0.16995275020599365
1149,0.16997911036014557
1150,0.1700054556131363
1151,0.17003178596496582
1152,0.17005805671215057
1153,0.17008431255817413
1154,0.1701105237007141
1155,0.1701366901397705
1156,0.17016281187534332
1157,0.17018890380859375
1158,0.1702149510383606
1159,0.17024093866348267
1160,0.17026688158512115
1161,0.17029277980327606
1162,0.170318603515625
1163,0.17034439742565155
1164,0.17037010192871094
1165,0.17039573192596436
1166,0.1704213172197342
1167,0.17044682800769806
1168,0.17047226428985596
1169,0.1704976111650467
1170,0.17052288353443146
1171,0.17054808139801025
1172,0.1705731749534607
1173,0.17059816420078278
1174,0.1706230640411377
1175,0.17064785957336426
1176,0.17067253589630127
1177,0.17069710791110992
1178,0.17072157561779022
1179,0.17074589431285858
1180,0.1707700937986374
1181,0.17079412937164307
1182,0.1708180457353592
1183,0.17084181308746338
1184,0.17086541652679443
1185,0.17088885605335236
1186,0.17091214656829834
1187,0.1709352284669876
1188,0.17095814645290375
1189,0.17098085582256317
1190,0.17100338637828827
1191,0.17102569341659546
1192,0.17104779183864594
1193,0.17106963694095612
1194,0.17109127342700958
1195,0.17111264169216156
1196,0.17113375663757324
1197,0.17115461826324463
